# TOPAS Version: 3.9
# Parameter File: simul.txt
# Results for scorer: Dose
# Scored in component: detector
# X in 1 bin  of 2 cm
# Y in 1 bin  of 2 cm
# Z in 300 bins of 0.1 cm
# DoseToMedium ( Gy ) : Mean   
0, 0, 0, 1.68460336809703e-18
0, 0, 1, 2.303188893115524e-18
0, 0, 2, 2.674890403563643e-18
0, 0, 3, 3.054971529855974e-18
0, 0, 4, 3.179114579808799e-18
0, 0, 5, 3.291846002444748e-18
0, 0, 6, 3.434355428337259e-18
0, 0, 7, 3.470432623197203e-18
0, 0, 8, 3.543324462701924e-18
0, 0, 9, 3.616490869880111e-18
0, 0, 10, 3.704947823313992e-18
0, 0, 11, 3.72150621044566e-18
0, 0, 12, 3.671385782404515e-18
0, 0, 13, 3.700877473110401e-18
0, 0, 14, 3.714563786310891e-18
0, 0, 15, 3.695666765140758e-18
0, 0, 16, 3.690354709464464e-18
0, 0, 17, 3.689538006860153e-18
0, 0, 18, 3.700388414565325e-18
0, 0, 19, 3.739305611960735e-18
0, 0, 20, 3.742963113525677e-18
0, 0, 21, 3.673922555289524e-18
0, 0, 22, 3.672321986470738e-18
0, 0, 23, 3.701818897923258e-18
0, 0, 24, 3.676642765559615e-18
0, 0, 25, 3.587986576506811e-18
0, 0, 26, 3.63025460614312e-18
0, 0, 27, 3.614253469061072e-18
0, 0, 28, 3.618749160560354e-18
0, 0, 29, 3.610237063436714e-18
0, 0, 30, 3.548378387170058e-18
0, 0, 31, 3.570872432318449e-18
0, 0, 32, 3.607950245308236e-18
0, 0, 33, 3.524736958814553e-18
0, 0, 34, 3.455324825840358e-18
0, 0, 35, 3.553071861183637e-18
0, 0, 36, 3.585001932275469e-18
0, 0, 37, 3.638929021295562e-18
0, 0, 38, 3.584382872623377e-18
0, 0, 39, 3.493790519952091e-18
0, 0, 40, 3.508278207935893e-18
0, 0, 41, 3.519496917521477e-18
0, 0, 42, 3.558975633591451e-18
0, 0, 43, 3.526828716277662e-18
0, 0, 44, 3.511771132648729e-18
0, 0, 45, 3.472212455336259e-18
0, 0, 46, 3.464688090112876e-18
0, 0, 47, 3.461412523674951e-18
0, 0, 48, 3.406858158395608e-18
0, 0, 49, 3.456908068126423e-18
0, 0, 50, 3.440457269446061e-18
0, 0, 51, 3.362167789433956e-18
0, 0, 52, 3.395871586500468e-18
0, 0, 53, 3.382742077536156e-18
0, 0, 54, 3.382695259400684e-18
0, 0, 55, 3.283336113554681e-18
0, 0, 56, 3.303349255896582e-18
0, 0, 57, 3.305733611703228e-18
0, 0, 58, 3.309095032136413e-18
0, 0, 59, 3.307632216121553e-18
0, 0, 60, 3.327660076412846e-18
0, 0, 61, 3.189191967245013e-18
0, 0, 62, 3.21673685019203e-18
0, 0, 63, 3.194836555600854e-18
0, 0, 64, 3.276102086870055e-18
0, 0, 65, 3.205248730287453e-18
0, 0, 66, 3.108340985656281e-18
0, 0, 67, 3.155463908021967e-18
0, 0, 68, 3.176022683446898e-18
0, 0, 69, 3.204981807526751e-18
0, 0, 70, 3.153026295065882e-18
0, 0, 71, 3.17610957235077e-18
0, 0, 72, 3.182818965464923e-18
0, 0, 73, 3.196220539515755e-18
0, 0, 74, 3.180038189373405e-18
0, 0, 75, 3.130350491707233e-18
0, 0, 76, 3.070380212012292e-18
0, 0, 77, 3.098988024104768e-18
0, 0, 78, 3.100563692468373e-18
0, 0, 79, 3.04554547248726e-18
0, 0, 80, 3.041429697905951e-18
0, 0, 81, 3.014313480617693e-18
0, 0, 82, 3.078561354442577e-18
0, 0, 83, 3.076126076238138e-18
0, 0, 84, 3.06988898402355e-18
0, 0, 85, 2.986535209118687e-18
0, 0, 86, 2.978354348391616e-18
0, 0, 87, 2.953376608911964e-18
0, 0, 88, 2.917130895053602e-18
0, 0, 89, 2.951312166657571e-18
0, 0, 90, 2.941830274448565e-18
0, 0, 91, 2.899567330729622e-18
0, 0, 92, 2.913273769702512e-18
0, 0, 93, 2.9596704676984e-18
0, 0, 94, 2.949386955448034e-18
0, 0, 95, 2.870914520194168e-18
0, 0, 96, 2.854629381818478e-18
0, 0, 97, 2.89760133448073e-18
0, 0, 98, 2.845216861863623e-18
0, 0, 99, 2.811096109398555e-18
0, 0, 100, 2.877326919809167e-18
0, 0, 101, 2.944685121959733e-18
0, 0, 102, 2.861129257804696e-18
0, 0, 103, 2.855336091624574e-18
0, 0, 104, 2.803562649766448e-18
0, 0, 105, 2.802180919785547e-18
0, 0, 106, 2.787308511031271e-18
0, 0, 107, 2.763997960770968e-18
0, 0, 108, 2.755234437025282e-18
0, 0, 109, 2.725509918936122e-18
0, 0, 110, 2.758082100101704e-18
0, 0, 111, 2.755044313775017e-18
0, 0, 112, 2.724118834493597e-18
0, 0, 113, 2.740384859577126e-18
0, 0, 114, 2.714253186057938e-18
0, 0, 115, 2.713691461498265e-18
0, 0, 116, 2.67715052965536e-18
0, 0, 117, 2.646631631289729e-18
0, 0, 118, 2.682261417295673e-18
0, 0, 119, 2.660356635508181e-18
0, 0, 120, 2.70050419721309e-18
0, 0, 121, 2.642317828006012e-18
0, 0, 122, 2.645048687107852e-18
0, 0, 123, 2.650366818757641e-18
0, 0, 124, 2.643351182267398e-18
0, 0, 125, 2.578626329540049e-18
0, 0, 126, 2.625851122804846e-18
0, 0, 127, 2.673757148089065e-18
0, 0, 128, 2.601892924345727e-18
0, 0, 129, 2.573341229806659e-18
0, 0, 130, 2.607143262222859e-18
0, 0, 131, 2.546060188243419e-18
0, 0, 132, 2.567408359410145e-18
0, 0, 133, 2.590814976900804e-18
0, 0, 134, 2.476646219358213e-18
0, 0, 135, 2.491937426720659e-18
0, 0, 136, 2.495143469205389e-18
0, 0, 137, 2.4795113475115e-18
0, 0, 138, 2.499496107301523e-18
0, 0, 139, 2.475267101832411e-18
0, 0, 140, 2.469309730826133e-18
0, 0, 141, 2.460811658398182e-18
0, 0, 142, 2.40148100326907e-18
0, 0, 143, 2.435013994900438e-18
0, 0, 144, 2.45391571145411e-18
0, 0, 145, 2.414270999070679e-18
0, 0, 146, 2.413787142985192e-18
0, 0, 147, 2.438051005322159e-18
0, 0, 148, 2.396861165362138e-18
0, 0, 149, 2.399395004361067e-18
0, 0, 150, 2.378998057798019e-18
0, 0, 151, 2.310609156627742e-18
0, 0, 152, 2.379487372478974e-18
0, 0, 153, 2.354421712350852e-18
0, 0, 154, 2.333694118149461e-18
0, 0, 155, 2.372729785621399e-18
0, 0, 156, 2.396046835150121e-18
0, 0, 157, 2.328214645879492e-18
0, 0, 158, 2.310815781871042e-18
0, 0, 159, 2.285332237039896e-18
0, 0, 160, 2.283573594805939e-18
0, 0, 161, 2.309073739735358e-18
0, 0, 162, 2.256449967523723e-18
0, 0, 163, 2.288876379697097e-18
0, 0, 164, 2.295002638795747e-18
0, 0, 165, 2.212447120963365e-18
0, 0, 166, 2.185914664434908e-18
0, 0, 167, 2.179606555194615e-18
0, 0, 168, 2.216375504749365e-18
0, 0, 169, 2.219523763626697e-18
0, 0, 170, 2.172285959315477e-18
0, 0, 171, 2.187122294080219e-18
0, 0, 172, 2.243396724540648e-18
0, 0, 173, 2.216092669794627e-18
0, 0, 174, 2.202111916618626e-18
0, 0, 175, 2.150366078076156e-18
0, 0, 176, 2.119681068928848e-18
0, 0, 177, 2.13569654758815e-18
0, 0, 178, 2.136595892966463e-18
0, 0, 179, 2.106884352376802e-18
0, 0, 180, 2.154022868345447e-18
0, 0, 181, 2.158613088550067e-18
0, 0, 182, 2.070114212330687e-18
0, 0, 183, 2.075898884641045e-18
0, 0, 184, 2.12179682746737e-18
0, 0, 185, 2.084409100266178e-18
0, 0, 186, 2.096775424362282e-18
0, 0, 187, 2.033514324157256e-18
0, 0, 188, 2.011947853554164e-18
0, 0, 189, 2.081246593207413e-18
0, 0, 190, 2.106139273945945e-18
0, 0, 191, 2.019370052182927e-18
0, 0, 192, 2.012376071204226e-18
0, 0, 193, 2.06139751975632e-18
0, 0, 194, 1.990400015302056e-18
0, 0, 195, 1.955598116564031e-18
0, 0, 196, 2.014237916421577e-18
0, 0, 197, 2.013120894852275e-18
0, 0, 198, 1.973542663782119e-18
0, 0, 199, 1.938097488832199e-18
0, 0, 200, 1.94719467950799e-18
0, 0, 201, 1.885629253455225e-18
0, 0, 202, 1.942957226099869e-18
0, 0, 203, 1.956794879573154e-18
0, 0, 204, 1.935447755259936e-18
0, 0, 205, 1.899699596960918e-18
0, 0, 206, 1.908936706331038e-18
0, 0, 207, 1.831468580912484e-18
0, 0, 208, 1.860779724694462e-18
0, 0, 209, 1.853691712694293e-18
0, 0, 210, 1.863511417519043e-18
0, 0, 211, 1.871788534197452e-18
0, 0, 212, 1.847229554023078e-18
0, 0, 213, 1.820451003060909e-18
0, 0, 214, 1.858878146995074e-18
0, 0, 215, 1.864083638178005e-18
0, 0, 216, 1.850812115256622e-18
0, 0, 217, 1.831513487724469e-18
0, 0, 218, 1.817155914815979e-18
0, 0, 219, 1.834254497969107e-18
0, 0, 220, 1.71414509233925e-18
0, 0, 221, 1.76238107236961e-18
0, 0, 222, 1.768019801690545e-18
0, 0, 223, 1.770464328618743e-18
0, 0, 224, 1.760758292844295e-18
0, 0, 225, 1.7221759591909e-18
0, 0, 226, 1.700677186373953e-18
0, 0, 227, 1.662099087544449e-18
0, 0, 228, 1.687936298150934e-18
0, 0, 229, 1.685976635030401e-18
0, 0, 230, 1.669409288838591e-18
0, 0, 231, 1.674209520571144e-18
0, 0, 232, 1.668090649411974e-18
0, 0, 233, 1.652243376441423e-18
0, 0, 234, 1.652074622029181e-18
0, 0, 235, 1.643801329939965e-18
0, 0, 236, 1.640849434613146e-18
0, 0, 237, 1.606946863603573e-18
0, 0, 238, 1.591591929863901e-18
0, 0, 239, 1.591284659942081e-18
0, 0, 240, 1.605448388199378e-18
0, 0, 241, 1.650630390758211e-18
0, 0, 242, 1.63179221062369e-18
0, 0, 243, 1.601305458996837e-18
0, 0, 244, 1.630988970099987e-18
0, 0, 245, 1.637808464737743e-18
0, 0, 246, 1.600578556431735e-18
0, 0, 247, 1.589414054221724e-18
0, 0, 248, 1.562308345363058e-18
0, 0, 249, 1.593491355936904e-18
0, 0, 250, 1.546395235411088e-18
0, 0, 251, 1.562925779952142e-18
0, 0, 252, 1.597075072664678e-18
0, 0, 253, 1.541459345800258e-18
0, 0, 254, 1.543203451542458e-18
0, 0, 255, 1.513267694479847e-18
0, 0, 256, 1.517681783804662e-18
0, 0, 257, 1.503408060568039e-18
0, 0, 258, 1.484767193552813e-18
0, 0, 259, 1.485015098809758e-18
0, 0, 260, 1.479725367126695e-18
0, 0, 261, 1.509193090399693e-18
0, 0, 262, 1.45246710458462e-18
0, 0, 263, 1.434944038175586e-18
0, 0, 264, 1.442023179675762e-18
0, 0, 265, 1.410474027351716e-18
0, 0, 266, 1.440244753241011e-18
0, 0, 267, 1.399493206518107e-18
0, 0, 268, 1.390996289749473e-18
0, 0, 269, 1.413808106287372e-18
0, 0, 270, 1.421203066055963e-18
0, 0, 271, 1.432824307043716e-18
0, 0, 272, 1.404984725761475e-18
0, 0, 273, 1.379199583089705e-18
0, 0, 274, 1.396450949880096e-18
0, 0, 275, 1.380549854125579e-18
0, 0, 276, 1.374426980801642e-18
0, 0, 277, 1.349697415479986e-18
0, 0, 278, 1.350816226070036e-18
0, 0, 279, 1.387749658939519e-18
0, 0, 280, 1.337089000709965e-18
0, 0, 281, 1.330213108115193e-18
0, 0, 282, 1.314778726853626e-18
0, 0, 283, 1.35871607980641e-18
0, 0, 284, 1.322060069513014e-18
0, 0, 285, 1.352291520666964e-18
0, 0, 286, 1.311047878898542e-18
0, 0, 287, 1.290564126242526e-18
0, 0, 288, 1.288443738918183e-18
0, 0, 289, 1.284723249784414e-18
0, 0, 290, 1.287956101973358e-18
0, 0, 291, 1.262535356004471e-18
0, 0, 292, 1.281549999279917e-18
0, 0, 293, 1.252403032263635e-18
0, 0, 294, 1.2444605533202e-18
0, 0, 295, 1.255100112180161e-18
0, 0, 296, 1.245644910708996e-18
0, 0, 297, 1.226935340452106e-18
0, 0, 298, 1.184502085106196e-18
0, 0, 299, 1.096614217963894e-18
